Time[s],Mobile_base_x,Mobile_base_y,End_effector_x,End_effector_y
0.0,0.0,0.0,1.056940068281219,-0.02442386123345071
0.016666666666666666,0.007423264121139368,-0.000191839951376847,1.0639018594947545,0.0006572285303335585
0.03333333333333333,0.013963776442292974,-0.00023223802847284502,1.0707636964489522,0.025327947817431265
0.05,0.021085700567735066,-0.00013941616316614163,1.0775265704498516,0.04959461661968786
0.06666666666666667,0.028744720916922258,0.0001041967520551286,1.0841914980171123,0.07346349339367879
0.08333333333333333,0.03689792036877679,0.0005132006343853558,1.0907595165397368,0.09694077403928454
0.1,0.045503891306910633,0.0010994699823601312,1.0972316803538642,0.12003259071796077
0.11666666666666667,0.05452282080904801,0.0018723915343300391,1.1036090572238346,0.14274501057555836
0.13333333333333333,0.06391655268940091,0.0028390923756464884,1.1098927252037614,0.16508403442389663
0.15,0.07364862898827915,0.004004657417735485,1.1160837698542672,0.18705559542569392
0.16666666666666666,0.08368431336570319,0.00537233548740116,1.1221832817876078,0.20866555781890614
0.18333333333333332,0.0939905987024607,0.0069437335364490125,1.1281923545138413,0.2299197157089896
0.2,0.10453620104896562,0.008718998713187955,1.1341120825608637,0.25082379195102567
0.21666666666666667,0.11529154189444149,0.010696988231955928,1.1399435598418202,0.27138343713797375
0.23333333333333334,0.1262287205604093,0.012875427138019854,1.145687878244495,0.29160422870646935
0.25,0.13732147835642713,0.015251054196523986,1.1513461264186455,0.3114916701674893
0.26666666666666666,0.1485451559749928,0.017819756239004673,1.1569193887388112,0.3310511904657878
0.2833333333333333,0.1598766454483415,0.020576691382601497,1.1624087444217872,0.35028814346918974
0.3,0.17129433784388648,0.023516401598522224,1.1678152667796713,0.36920780758654226
0.31666666666666665,0.1827780677381516,0.026632915150383036,1.1731400225910937,0.38781538551130423
0.3333333333333333,0.19430905538176232,0.029919839452325524,1.178384071574929,0.4061160040863304
0.35,0.20586984735063357,0.03337044491364166,1.1835484659523865,0.42411471428433656
0.36666666666666664,0.21744425637091663,0.03697774034310684,1.1886342500849143,0.44181649129774264
0.3833333333333333,0.22901730090736488,0.04073454048418434,1.1936424601767741,0.45922623473106566
0.4,0.24057514501622723,0.04463352624335349,1.1985741240324823,0.47634876888869565
0.4166666666666667,0.2521050388841583,0.04866729815945123,1.2034302608605216,0.4931888431507366
0.43333333333333335,0.2635952604034515,0.052828423643333816,1.2082118811158562,0.5097511324295709
0.45,0.2750350580706167,0.057109478495416956,1.212919986374779,0.5260402376998967
0.4666666666666667,0.28641459543937625,0.061503083184635654,1.217555569236527,0.5420606865951666
0.48333333333333334,0.29772489730996615,0.0660019343468348,1.2221196132469174,0.5578169340635998
0.5,0.3089577977936363,0.07059883193418695,1.2266130928399703,0.5733133630772363
0.5166666666666666,0.32010589035389164,0.07528670242045397,1.2310369732941173,0.5885542853878315
0.5333333333333333,0.3311624798937656,0.08005861844018503,1.2353922107001527,0.6035439423237403
0.55,0.3421215369307682,0.0849078152136141,1.2396797519385685,0.6182865056223195
0.5666666666666667,0.35297765387761715,0.08982770408335006,1.2439005346643364,0.6327860782927293
0.5833333333333334,0.36372600342700423,0.09481188346414544,1.2480554872975638,0.6470466955044131
0.6,0.3743622990220479,0.09985414748323905,1.2521455290187509,0.6610723254968769
0.6166666666666667,0.38488275738036515,0.10494849256609788,1.2561715697676568,0.6748668705067645
0.6333333333333333,0.3952840630285075,0.11008912220090865,1.2601345102449875,0.6884341677085561
0.65,0.40556333479453094,0.11527045009492658,1.264035241916324,0.7017779901655523
0.6666666666666666,0.4157180941994269,0.12048710191679712,1.2678746470178424,0.7149020477881134
0.6833333333333333,0.4257462356827643,0.1257339158012192,1.2716535985635262,0.7278099882964207
0.7,0.4356459985939588,0.1310059417757972,1.2753729603536652,0.740505398185297
0.7166666666666667,0.4454159408778793,0.13629844025460083,1.279033586984509,0.7529918036888855
0.7333333333333333,0.4550549143818491,0.14160687972877656,1.2826363238590355,0.765272671743221
0.75,0.4645620417103284,0.14692693377148097,1.2861820071988128,0.7773514109449502
0.7666666666666666,0.4739366945535385,0.15225447746238524,1.2896714640570008,0.7892313725046615
0.7833333333333333,0.4831784734168781,0.15758558332597186,1.293105512332541,0.800915851193468
0.8,0.4922871886790785,0.16291651686775385,1.2964849607856244,0.8124080862816646
0.8166666666666667,0.5012628429085503,0.16824373178333393,1.2998106090545232,0.8237112624684311
0.8333333333333334,0.5101056143692072,0.17356386490682843,1.3030832476738803,0.8348285108016953
0.85,0.5188158416491416,0.17887373095755205,1.306303658094563,0.845762909587403
0.8666666666666667,0.5273940093478058,0.18417031713693852,1.3094726127051675,0.8565174852875523
0.8833333333333333,0.5358407347597759,0.18945077762140697,1.3125908748552666,0.867095213406461
0.9,0.5441567554956899,0.19471242799122246,1.3156591988804887,0.8774990193648217
0.9166666666666666,0.5523429179835255,0.19995273963029353,1.3186783301294884,0.8877317793611947
0.9333333333333333,0.5604001667959816,0.2051693341272556,1.3216490049928822,0.8977963212206531
0.95,0.5683295347523236,0.2103599777040607,1.3245719509341964,0.9076954252303705
0.9666666666666667,0.5761321337456279,0.21552257569459454,1.3274478865228658,0.9174318249619964
0.9833333333333333,0.5838091462488922,0.22065516709253125,1.3302775214693152,0.9270082080807197
1.0,0.5913618174559558,0.22575591918468038,1.33306155666214,0.9364272171409667
1.0166666666666666,0.5987914480155844,0.23082312228344828,1.335800684207391,0.9456914503687214
1.0333333333333332,0.6060993873194084,0.23585518456969443,1.3384955874699656,0.9548034624304907
1.05,0.6132870273066577,0.24085062705518895,1.3411469411170862,0.963765765188971
1.0666666666666667,0.6203557967507999,0.2458080786720409,1.3437554111638486,0.9725808284454964
1.0833333333333333,0.6273071559952648,0.25072627149484766,1.3463216550208053,0.9812510806693762
1.1,0.6341425921074266,0.25560403609989135,1.3488463215435542,0.9897789097142436
1.1166666666666667,0.6408636144219017,0.2604402970644592,1.3513300510842767,0.9981666635215642
1.1333333333333333,0.6474717504460239,0.2652340686082733,1.3537734755451845,1.0064166508114536
1.15,0.6539685421020698,0.26998445037806584,1.3561772184338134,1.0145311417609824
1.1666666666666667,0.6603555422824214,0.27469062337551203,1.3585418949201038,1.0225123686701365
1.1833333333333333,0.666634311695394,0.2793518460280243,1.3608681118952042,1.0303625266156333
1.2,0.6728064159808987,0.28396745040130156,1.3631564680319297,1.0380837740927729
1.2166666666666666,0.6788734230764811,0.2885368385520095,1.3654075538467993,1.0456782336455333
1.2333333333333334,0.6848369008155611,0.2930594790185298,1.367621951763588,1.0531479924851077
1.25,0.6906984147409153,0.2975349034473478,1.3698002361783073,1.0604951030970848
1.2666666666666666,0.6964595261175779,0.3019627033523461,1.371942973525544,1.067721583837486
1.2833333333333332,0.7021217901304123,0.30634252700402115,1.3740507223460832,1.0748294195178558
1.3,0.7076867542526049,0.3106740764454422,1.376124033355725,1.0818205619796222
1.3166666666666667,0.7131559567722772,0.31495710463161547,1.3781634495152335,1.0886969306579242
1.3333333333333333,0.7185309254652957,0.31919141268879864,1.3801695061013257,1.0954604131351144
1.35,0.7238131764031823,0.32337684729022614,1.3821427307786327,1.1021128656841372
1.3666666666666667,0.7290042128858031,0.32751329814464963,1.3840836436725554,1.1086561138019893
1.3833333333333333,0.7341055244892363,0.3316006955940679,1.3859927574429327,1.1150919527334475
1.4,0.7391185862198947,0.33563900831701104,1.38787057735846,1.1214221479852724
1.4166666666666667,0.7440448577666089,0.33962824113375384,1.3897176013717754,1.12764843583107
1.4333333333333333,0.7488857828429677,0.34356843290985917,1.3915343201951476,1.1337725238070053
1.45,0.7536427886127592,0.34745965455449196,1.3933212173766956,1.13979609119855
1.4666666666666666,0.7583172851918722,0.35130200710999415,1.3950787693770739,1.1457207895184482
1.4833333333333334,0.7629106652204916,0.3550956199292735,1.3968074456465551,1.1515482429760784
1.5,0.7674243034998689,0.3588406489376259,1.3985077087024482,1.1572800489383828
1.5166666666666666,0.7718595566883649,0.36253727497568694,1.4001800142067973,1.1629177783825408
1.5333333333333332,0.7762177630518439,0.3661857022202889,1.401824811044286,1.16846297634055
1.55,0.7805002422638625,0.3697861566800825,1.4034425414003109,1.173917162335878
1.5666666666666667,0.7847082952514295,0.3733388847628721,1.4050336408391517,1.1792818308123465
1.5833333333333333,0.7888432040824229,0.3768441519117002,1.406598538382198,1.184558451555407
1.6,0.7929062318910436,0.3803022413068113,1.4081376565861736,1.189748470105954
1.6166666666666667,0.79689862283795,0.3837134526307141,1.409651411621315,1.1948533081668309
1.6333333333333333,0.8008216021019724,0.38707810089365513,1.4111402133494566,1.1998743640021723
1.65,0.8046763759005361,0.3903965153169084,1.412604465401979,1.2048130128297254
1.6666666666666667,0.8084641315361396,0.3936690382713764,1.4140445652575768,1.2096706072062895
1.6833333333333333,0.8121860374664346,0.39689602426908904,1.4154609043198088,1.2144484774064084
1.7,0.8158432433956411,0.40007783900527516,1.4168538679943892,1.2191479317944518
1.7166666666666666,0.8194368803852056,0.40321485844876936,1.4182238357661863,1.2237702571902103
1.7333333333333334,0.8229680609817686,0.40630746797860257,1.4195711812758973,1.228316719228134
1.75,0.8264378793606594,0.4093560615647078,1.4208962723963574,1.232788562710336
1.7666666666666666,0.8298474114832736,0.4123610409907552,1.4221994713084658,1.2371870119534853
1.7833333333333332,0.8331977152668167,0.41532281511721036,1.42348113457669,1.2415132711296983
1.8,0.836489830765019,0.41824179918278476,1.4247416132241244,1.2457685246015546
1.8166666666666667,0.8397247803585338,0.4211184141425263,1.4259812528070825,1.2499539372513406
1.8333333333333333,0.8429035689538367,0.42395308604086696,1.4272003934891897,1.2540706548046354
1.8499999999999999,0.8460271841895375,0.42674624541801653,1.4283993701149658,1.258119804148344
1.8666666666666667,0.8490965966491049,0.42949832674816046,1.4295785122828644,1.2621024936432823
1.8833333333333333,0.8521127600790839,0.43220976790798293,1.4307381444177631,1.2660198134314191
1.9,0.8550766116119656,0.4348810096741024,1.4318785858428753,1.2698728357378695
1.9166666666666667,0.8579890719929345,0.437512495248066,1.4330001508510726,1.2736626151677413
1.9333333333333333,0.8608510458097866,0.440104669807609,1.4341031487756042,1.2773901889979309
1.95,0.8636634217253694,0.44265798008294177,1.4351878840601944,1.2810565774639568
1.9666666666666666,0.8664270727119541,0.44517287395688127,1.4362546563285095,1.2846627840419285
1.9833333333333334,0.869142856286996,0.447649800087696,1.4373037604529786,1.2882097957257312
2.0,0.8718116147497923,0.4500892075535842,1.4383354866229638,1.2916985832995262
2.0166666666666666,0.8744341754185885,0.4524915455177526,1.439350120412262,1.2951301016056374
2.033333333333333,0.8770113508677225,0.45485726291310963,1.4403479428459383,1.2985052898079192
2.05,0.8795439391644393,0.4571868081456315,1.4413292304664729,1.3018250716506836
2.0666666666666664,0.8820327241050369,0.4594806288155016,1.442294255399229,1.3050903557132616
2.0833333333333335,0.884478475450042,0.4617391714551643,1.4432432854172204,1.3083020356602857
2.1,0.8868819491581403,0.46396288128347396,1.444176584005184,1.3114609904877643
2.1166666666666667,0.8892438876186145,0.46615220197515655,1.4450944104229504,1.314568084765023
2.1333333333333333,0.8915650198820682,0.46830757544483714,1.445997019768104,1.31762416887259
2.15,0.8938460618892382,0.47042944164492073,1.4468846630379408,1.3206300792360932
2.1666666666666665,0.8960877166977179,0.47251823837664686,1.4477575871907074,1.3235866385562411
2.183333333333333,0.898290674706434,0.47457440111366894,1.4486160352061308,1.3264946560349602
2.2,0.9004556138777382,0.4765983628375402,1.4494602461452326,1.3293549275977463
2.216666666666667,0.9025831999569918,0.4785905538845152,1.4502904552094291,1.3321682361123097
2.2333333333333334,0.904674086689536,0.480551401803105,1.4511068937989167,1.3349353516035665
2.25,0.9067289160349552,0.4824813312218483,1.4519097895703388,1.3376570314650478
2.2666666666666666,0.908748318378554,0.48438076372678696,1.4526993664937462,1.340334020666786
2.283333333333333,0.9107329127399793,0.486250117748158,1.4534758449088405,1.342967051959739
2.3,0.9126833069789317,0.48808980845583594,1.4542394415805076,1.3455568460768137
2.3166666666666664,0.9146000979979192,0.489900247663082,1.4549903697536446,1.3481041119305468
2.3333333333333335,0.9164838719420132,0.4916818437381777,1.45572883920728,1.3506095468074992
2.35,0.918335204395582,0.4934350015235383,1.4564550563079943,1.3530738365594228
2.3666666666666667,0.9201546605759757,0.49516012226192274,1.457169224062636,1.355497655791256
2.3833333333333333,0.9219427955241498,0.4968576035293728,1.4578715421703452,1.3578816680459962
2.4,0.9237001542922197,0.49852783917453286,1.4585622070738873,1.3602265259865107
2.4166666666666665,0.9254272721279421,0.5001712192640168,1.4592414120102932,1.3625328715743315
2.433333333333333,0.9271246746561262,0.5017881300335048,1.459909347060821,1.3648013362454912
2.45,0.9287928780569839,0.5033789538442687,1.4605661992002361,1.3670325410834467
2.466666666666667,0.9304323892414269,0.5049440691448365,1.4612121523454185,1.3692270969891387
2.4833333333333334,0.9320437060233313,0.5064838504375218,1.4618473874033002,1.3713856048482418
2.5,0.933627317288784,0.5079986682495576,1.462472082318137,1.3735086556956457
2.5166666666666666,0.935183703162336,0.5094888891085844,1.4630864121181262,1.3755968308772204
2.533333333333333,0.9367133351702867,0.5109548755222546,1.4636905489613663,1.3776507022089057
2.55,0.9382166764010265,0.5123969859617293,1.4642846621811711,1.3796708321331759
2.5666666666666664,0.9396941816624679,0.5138155748488495,1.4648689183307422,1.3816577738729172
2.5833333333333335,0.9411462976365964,0.515210992546778,1.4654434812272048,1.383612071582771
2.6,0.9425734630311746,0.5165835853539168,1.4660085119950137,1.3855342604979737
2.6166666666666667,0.9439761087286345,0.5179336955009126,1.4665641691087359,1.3874248670807445
2.6333333333333333,0.9453546579321945,0.5192616611505747,1.4671106084352146,1.3892844091642602
2.65,0.9467095263092381,0.5205678164005354,1.467647983275122,1.3911133960942528
2.6666666666666665,0.9480411221319924,0.5218524912884931,1.4681764444039078,1.3929123288682763
2.683333333333333,0.9493498464155462,0.5231160117998844,1.4686961401121468,1.3946817002726786
2.7,0.9506360930532466,0.5243586998778403,1.4692072162452945,1.396421995017314
2.716666666666667,0.9519002489495154,0.525580873435287,1.4697098162428603,1.3981336898680425
2.7333333333333334,0.9531426941501251,0.5267828463690609,1.4702040811769939,1.3998172537770395
2.75,0.9543638019699757,0.5279649285759103,1.4706901497905076,1.4014731480109677
2.7666666666666666,0.9555639391184144,0.529127425970266,1.4711681585343237,1.403101826277037
2.783333333333333,0.9567434658221381,0.5302706405036667,1.471638241604368,1.4047037348469869
2.8,0.9579027359457213,0.5313948701857302,1.4721005309779083,1.406279312679034
2.8166666666666664,0.95904209710981,0.532500409106569,1.4725551564493442,1.4078289915378088
2.8333333333333335,0.9601618908070234,0.5335875474605515,1.473002245665458,1.4093531961123245
2.85,0.9612624525156038,0.5346565715713156,1.4734419241601346,1.4108523441320013
2.8666666666666667,0.9623441118108563,0.5357077639179478,1.473874315388551,1.4123268464807863
2.8833333333333333,0.9634071924744181,0.5367414031622418,1.4742995407608461,1.4137771073093977
2.9,0.9644520126013985,0.5377577641769576,1.4747177196752783,1.4152035241457201
2.9166666666666665,0.9654788847054288,0.5387571180750057,1.4751289695508727,1.4166064880033897
2.933333333333333,0.9664881158216618,0.5397397322394828,1.475533405859571,1.4179863834885942
2.95,0.9674800076077609,0.5407058703544925,1.4759311421578856,1.4193435889051151
2.966666666666667,0.9684548564429152,0.5416557924366834,1.4763222901180637,1.4206784763576505
2.9833333333333334,0.969412953524922,0.5425897548674454,1.476706959558773,1.4219914118534325
3.0,0.9703545849653713,0.5435080104257035,1.4770852584753114,1.4232827554021832
3.0166666666666666,0.9712800318829717,0.5444108083212542,1.4774572930693468,1.4245528611144243
3.033333333333333,0.9721895704950531,0.545298394228592,1.4778231677781943,1.425802077298174
3.05,0.9730834722072826,0.5461710103211755,1.4781829853036408,1.427030746554058
3.0666666666666664,0.9739620037016304,0.5470288953060852,1.4785368466403137,1.4282392058688544
3.0833333333333335,0.974825427022618,0.5478722844590285,1.478884851103611,1.4294277867075074
3.1,0.9756739996618862,0.5487014096596494,1.4792270963571907,1.4305968151036288
3.1166666666666667,0.9765079746411146,0.5495164994271017,1.4795636784400308,1.4317466117485136
3.1333333333333333,0.9773276005933272,0.5503177789558477,1.4798946917930598,1.432877492078696
3.15,0.9781331218426159,0.5511054701516466,1.4802202292853728,1.4339897663620662
3.1666666666666665,0.9789247784823145,0.5518797916676974,1.48054038224003,1.4350837397825775
3.183333333333333,0.9797028064516551,0.5526409589409048,1.4808552404594493,1.4361597125235606
3.2,0.980467437610937,0.5533891842282364,1.4811648922503957,1.4372179798496707
3.216666666666667,0.98121889981524,0.554124676643143,1.4814694244485753,1.4382588321874934
3.2333333333333334,0.9819574169867098,0.5548476421920148,1.4817689224428372,1.439282555204825
3.25,0.9826832091854464,0.5555582838106459,1.482063470198995,1.4402894298886522
3.2666666666666666,0.9833964926790243,0.5562568014006853,1.482353150283261,1.441279732621856
3.283333333333333,0.9840974800106715,0.5569433918660496,1.4826380438853155,1.4422537352586537
3.3,0.984786380066136,0.5576182491492752,1.482918230841001,1.4432117051988052
3.3166666666666664,0.9854633981392652,0.5582815642677923,1.483193789654656,1.444153905460602
3.3333333333333335,0.9861287359963278,0.5589335253500989,1.483464797521094,1.4450805947526595
3.35,0.9867825919391,0.559574317671817,1.483731330347223,1.445992027544532
3.3666666666666667,0.9874251608667455,0.5602041236916159,1.4839934627733269,1.4468884541361666
3.3833333333333333,0.988056634336511,0.5608231230869846,1.484251268193996,1.4477701207262255
3.4,0.9886772006232638,0.5614314927898393,1.48450481877873,1.448637269479279
3.4166666666666665,0.9892870447778935,0.5620294070219525,1.4847541854922002,1.4494901385919037
3.433333333333333,0.9898863486846035,0.5626170373301895,1.4849994381141916,1.450328962357693
3.4499999999999997,0.9904752911171123,0.5631945526215408,1.4852406452592202,1.4511539712312034
3.466666666666667,0.9910540477937902,0.5637621191979392,1.4854778743958348,1.4519653918908526
3.4833333333333334,0.9916227914317504,0.5643199007908499,1.4857111918656027,1.452763447300784
3.5,0.9921816917999173,0.5648680585956259,1.4859406629017968,1.4535483567717216
3.5166666666666666,0.9927309157710944,0.5654067513056164,1.4861663516477677,1.4543203360208214
3.533333333333333,0.9932706273730487,0.5659361351460224,1.4863883211750295,1.455079597230547
3.55,0.9938009878386359,0.566456363907491,1.4866066335010455,1.455826349106576
3.5666666666666664,0.9943221556549826,0.56696758897944,1.4868213496067235,1.4565607969347605
3.5833333333333335,0.9948342866117473,0.5674699593831071,1.4870325294536337,1.457283142637151
3.6,0.9953375338484773,0.5679636218043178,1.4872402320009392,1.457993584827105
3.6166666666666667,0.9958320479010807,0.568448720625966,1.4874445152220552,1.4586923188634882
3.6333333333333333,0.9963179767474317,0.5689253979602016,1.4876454361210336,1.459379536903991
3.65,0.9967954658521263,0.5693937936803218,1.4878430507486824,1.4600554279575721
